15.47010 26.0
15.48010 24.0
15.49010 31.0
15.50010 32.0
15.51010 29.0
15.52010 22.0
15.53010 30.0
15.54010 22.0
15.55010 25.0
15.56010 18.0
15.57010 25.0
15.58010 17.0
15.59010 25.0
15.60010 24.0
15.61010 26.0
15.62010 15.0
15.63010 19.0
15.64010 25.0
15.65010 14.0
15.66010 24.0
15.67010 30.0
15.68010 24.0
15.69010 29.0
15.70010 26.0
15.71010 27.0
15.72010 35.0
15.73010 17.0
15.74010 21.0
15.75010 21.0
15.76010 18.0
15.77010 19.0
15.78010 24.0
15.79010 32.0
15.80010 32.0
15.81010 21.0
15.82010 27.0
15.83010 28.0
15.84010 25.0
15.85010 27.0
15.86010 22.0
15.87010 28.0
15.88010 22.0
15.89010 25.0
15.90010 25.0
15.91010 18.0
15.92010 25.0
15.93010 26.0
15.94010 23.0
15.95010 25.0
15.96010 19.0
15.97010 29.0
15.98010 27.0
15.99010 30.0
16.00010 30.0
16.01010 32.0
16.02010 22.0
16.03010 22.0
16.04010 35.0
16.05010 17.0
16.06010 28.0
16.07010 34.0
16.08010 22.0
16.09010 30.0
16.10010 25.0
16.11010 28.0
16.12010 24.0
16.13010 29.0
16.14010 22.0
16.15010 24.0
16.16010 28.0
16.17010 24.0
16.18010 35.0
16.19010 33.0
16.20010 33.0
16.21010 37.0
16.22010 33.0
16.23010 29.0
16.24010 37.0
16.25010 25.0
16.26010 28.0
16.27010 35.0
16.28010 23.0
16.29010 24.0
16.30010 33.0
16.31010 30.0
16.32010 26.0
16.33010 30.0
16.34010 24.0
16.35010 31.0
16.36010 34.0
16.37010 35.0
16.38010 33.0
16.39010 27.0
16.40010 44.0
16.41010 25.0
16.42010 30.0
16.43010 31.0
16.44010 39.0
16.45010 37.0
16.46010 31.0
16.47010 38.0
16.48010 45.0
16.49010 39.0
16.50010 39.0
16.51010 42.0
16.52010 32.0
16.53010 31.0
16.54010 32.0
16.55010 32.0
16.56010 40.0
16.57010 52.0
16.58010 51.0
16.59010 36.0
16.60010 40.0
16.61010 61.0
16.62010 50.0
16.63010 42.0
16.64010 46.0
16.65010 47.0
16.66010 47.0
16.67010 50.0
16.68010 60.0
16.69010 62.0
16.70010 51.0
16.71010 58.0
16.72010 64.0
16.73010 65.0
16.74010 68.0
16.75010 63.0
16.76010 73.0
16.77010 67.0
16.78010 71.0
16.79010 91.0
16.80010 88.0
16.81010 77.0
16.82010 72.0
16.83010 77.0
16.84010 94.0
16.85010 89.0
16.86010 85.0
16.87010 90.0
16.88010 101.0
16.89010 97.0
16.90010 124.0
16.91010 112.0
16.92010 97.0
16.93010 118.0
16.94010 111.0
16.95010 115.0
16.96010 145.0
16.97010 127.0
16.98010 184.0
16.99010 134.0
17.00010 173.0
17.01010 147.0
17.02010 179.0
17.03010 190.0
17.04010 202.0
17.05010 207.0
17.06010 213.0
17.07010 230.0
17.08010 245.0
17.09010 263.0
17.10010 299.0
17.11010 347.0
17.12010 354.0
17.13010 400.0
17.14010 422.0
17.15010 486.0
17.16010 499.0
17.17010 574.0
17.18010 608.0
17.19010 742.0
17.20010 854.0
17.21010 921.0
17.22010 1101.0
17.23010 1222.0
17.24010 1380.0
17.25010 1560.0
17.26010 1776.0
17.27010 1879.0
17.28010 2329.0
17.29010 2705.0
17.30010 3192.0
17.31010 3833.0
17.32010 4596.0
17.33010 5759.0
17.34010 6977.0
17.35010 8865.0
17.36010 11345.0
17.37010 14480.0
17.38010 19263.0
17.39010 26386.0
17.40010 34969.0
17.41010 45642.0
17.42010 59128.0
17.43010 74701.0
17.44010 88081.0
17.45010 98550.0
17.46010 101863.0
17.47010 98927.0
17.48010 88687.0
17.49010 76632.0
17.50010 62137.0
17.51010 47379.0
17.52010 36643.0
17.53010 26976.0
17.54010 20220.0
17.55010 15097.0
17.56010 11492.0
17.57010 8610.0
17.58010 6612.0
17.59010 5387.0
17.60010 4351.0
17.61010 3617.0
17.62010 2978.0
17.63010 2356.0
17.64010 2184.0
17.65010 1874.0
17.66010 1588.0
17.67010 1328.0
17.68010 1254.0
17.69010 997.0
17.70010 911.0
17.71010 809.0
17.72010 710.0
17.73010 664.0
17.74010 578.0
17.75010 604.0
17.76010 524.0
17.77010 420.0
17.78010 417.0
17.79010 419.0
17.80010 393.0
17.81010 337.0
17.82010 355.0
17.83010 330.0
17.84010 320.0
17.85010 327.0
17.86010 322.0
17.87010 303.0
17.88010 322.0
17.89010 304.0
17.90010 302.0
17.91010 308.0
17.92010 334.0
17.93010 320.0
17.94010 310.0
17.95010 283.0
17.96010 270.0
17.97010 279.0
17.98010 260.0
17.99010 249.0
18.00010 251.0
18.01010 262.0
18.02010 279.0
18.03010 307.0
18.04010 291.0
18.05010 292.0
18.06010 259.0
18.07010 262.0
18.08010 272.0
18.09010 265.0
18.10010 249.0
18.11010 225.0
18.12010 219.0
18.13010 197.0
18.14010 222.0
18.15010 232.0
18.16010 237.0
18.17010 236.0
18.18010 246.0
18.19010 218.0
18.20010 209.0
18.21010 198.0
18.22010 181.0
18.23010 201.0
18.24010 180.0
18.25010 148.0
18.26010 154.0
18.27010 140.0
18.28010 107.0
18.29010 107.0
18.30010 97.0
18.31010 108.0
18.32010 86.0
18.33010 95.0
18.34010 101.0
18.35010 95.0
18.36010 73.0
18.37010 62.0
18.38010 58.0
18.39010 60.0
18.40010 58.0
18.41010 66.0
18.42010 60.0
18.43010 56.0
18.44010 43.0
18.45010 32.0
18.46010 43.0
18.47010 37.0
18.48010 34.0
18.49010 45.0
18.50010 36.0
18.51010 40.0
18.52010 32.0
18.53010 34.0
18.54010 35.0
18.55010 23.0
18.56010 34.0
18.57010 29.0
18.58010 33.0
18.59010 34.0
18.60010 31.0
18.61010 29.0
18.62010 30.0
18.63010 26.0
18.64010 26.0
18.65010 43.0
18.66010 24.0
18.67010 25.0
18.68010 30.0
18.69010 23.0
18.70010 29.0
18.71010 20.0
18.72010 30.0
18.73010 28.0
18.74010 35.0
18.75010 23.0
18.76010 18.0
18.77010 25.0
18.78010 22.0
18.79010 24.0
18.80010 28.0
18.81010 30.0
18.82010 20.0
18.83010 28.0
18.84010 28.0
18.85010 30.0
18.86010 32.0
18.87010 31.0
18.88010 22.0
18.89010 21.0
18.90010 25.0
18.91010 25.0
18.92010 20.0
18.93010 24.0
18.94010 27.0
18.95010 24.0
18.96010 24.0
18.97010 22.0
18.98010 25.0
18.99010 23.0
19.00010 20.0
19.01010 16.0
19.02010 21.0
19.03010 31.0
19.04010 21.0
19.05010 21.0
19.06010 25.0
19.07010 28.0
19.08010 23.0
19.09010 19.0
19.10010 26.0
19.11010 14.0
19.12010 32.0
19.13010 22.0
19.14010 22.0
19.15010 26.0
19.16010 35.0
19.17010 26.0
19.18010 20.0
19.19010 20.0
19.20010 16.0
19.21010 21.0
19.22010 10.0
19.23010 16.0
19.24010 25.0
19.25010 31.0
19.26010 25.0
19.27010 23.0
19.28010 27.0
19.29010 19.0
19.30010 13.0
19.31010 17.0
19.32010 24.0
19.33010 25.0
19.34010 22.0
19.35010 19.0
19.36010 27.0
19.37010 22.0
19.38010 21.0
19.39010 23.0
19.40010 20.0
19.41010 24.0
19.42010 19.0
19.43010 25.0
19.44010 22.0
19.45010 13.0
