30.5441 16
30.5531 16
30.5621 22
30.5711 19
30.5801 19
30.5891 20
30.5981 27
30.6071 18
30.6161 20
30.6251 16
30.6341 15
30.6431 13
30.6521 16
30.6611 17
30.6701 18
30.6791 14
30.6881 27
30.6971 22
30.7061 16
30.7151 12
30.7241 17
30.7331 13
30.7421 16
30.7511 21
30.7601 22
30.7691  7
30.7781 12
30.7871 13
30.7961 23
30.8051 19
30.8141 16
30.8231 28
30.8321 21
30.8411 23
30.8501 18
30.8591 23
30.8681 22
30.8771 28
30.8861 19
30.8951 19
30.9041 15
30.9131 20
30.9221 14
30.9311 24
30.9401 20
30.9491 13
30.9581 14
30.9671 24
30.9761 14
30.9851 21
30.9941 22
31.0031 19
31.0121 18
31.0211 25
31.0301 13
31.0391 24
31.0481 14
31.0571 22
31.0661 24
31.0751 34
31.0841 27
31.0931 28
31.1021 39
31.1111 34
31.1201 37
31.1291 35
31.1381 32
31.1471 26
31.1561 26
31.1651 27
31.1741 13
31.1831 16
31.1921 22
31.2011 26
31.2101 16
31.2191 18
31.2281 17
31.2371 16
31.2461 22
31.2551 20
31.2641 19
31.2731 19
31.2821 22
31.2911 22
31.3001 30
31.3091 23
31.3181 26
31.3271 27
31.3361 23
31.3451 43
31.3541 32
31.3631 31
31.3721 43
31.3811 43
31.3901 39
31.3991 45
31.4081 56
31.4171 23
31.4261 25
31.4351 29
31.4441 24
31.4531 14
31.4621 21
31.4711 19
31.4801 22
31.4891 19
31.4981 20
31.5071 16
31.5161 10
31.5251 15
31.5341 21
31.5431 18
31.5521 18
31.5611 20
31.5701 15
31.5791 27
31.5881 30
31.5971 26
31.6061 28
31.6151 25
31.6241 26
31.6331 25
31.6421 37
31.6511 50
31.6601 36
31.6691 42
31.6781 46
31.6871 31
31.6961 25
31.7051 25
31.7141 29
31.7231 29
31.7321 19
31.7411 18
31.7501 37
31.7591 18
31.7681 16
31.7771 14
31.7861 22
31.7951 23
31.8041 17
31.8131 21
31.8221 21
31.8311 21
31.8401 26
31.8491 17
31.8581 21
31.8671 23
31.8761 26
31.8851 19
31.8941 24
31.9031 19
31.9121 31
31.9211 43
31.9301 24
31.9391 21
31.9481 34
31.9571 21
31.9661 27
31.9751 24
31.9841 21
31.9931 24
32.0021 24
32.0111 21
32.0201 22
32.0291  9
32.0381 19
32.0471 12
32.0561 26
32.0651 21
32.0741 21
32.0831 25
32.0921 19
32.1011 18
32.1101 18
32.1191 22
32.1281 21
32.1371 21
32.1461 35
32.1551 31
32.1641 38
32.1731 49
32.1821 36
32.1911 41
32.2001 48
32.2091 55
32.2181 50
32.2271 36
32.2361 35
32.2451 40
32.2541 28
32.2631 26
32.2721 29
32.2811 28
32.2901 10
32.2991 25
32.3081 22
32.3171 22
32.3261 23
32.3351 28
32.3441 17
32.3531 32
32.3621 14
32.3711 23
32.3801 20
32.3891 24
32.3981 41
32.4071 28
32.4161 32
32.4251 37
32.4341 48
32.4431 60
32.4521 63
32.4611 70
32.4701 82
32.4791 76
32.4881 90
32.4971 57
32.5061 39
32.5151 40
32.5241 33
32.5331 34
32.5421 31
32.5511 30
32.5601 34
32.5691 28
32.5781 34
32.5871 21
32.5961 27
32.6051 17
32.6141 26
32.6231 20
32.6321 43
32.6411 27
32.6501 32
32.6591 27
32.6681 47
32.6771 25
32.6861 35
32.6951 41
32.7041 64
32.7131 64
32.7221 71
32.7311 80
32.7401 89
32.7491 114
32.7581 116
32.7671 74
32.7761 67
32.7851 48
32.7941 40
32.8031 36
32.8121 42
32.8211 43
32.8301 45
32.8391 37
32.8481 29
32.8571 31
32.8661 32
32.8751 30
32.8841 39
32.8931 29
32.9021 42
32.9111 29
32.9201 27
32.9291 33
32.9381 46
32.9471 42
32.9561 57
32.9651 51
32.9741 62
32.9831 69
32.9921 107
33.0011 139
33.0101 148
33.0191 190
33.0281 168
33.0371 127
33.0461 116
33.0551 89
33.0641 82
33.0731 61
33.0821 60
33.0911 42
33.1001 48
33.1091 42
33.1181 32
33.1271 37
33.1361 51
33.1451 55
33.1541 48
33.1631 55
33.1721 45
33.1811 51
33.1901 48
33.1991 44
33.2081 44
33.2171 60
33.2261 83
33.2351 90
33.2441 108
33.2531 133
33.2621 175
33.2711 236
33.2801 274
33.2891 258
33.2981 256
33.3071 229
33.3161 182
33.3251 171
33.3341 128
33.3431 104
33.3521 76
33.3611 69
33.3701 56
33.3791 58
33.3881 66
33.3971 54
33.4061 52
33.4151 35
33.4241 58
33.4331 44
33.4421 49
33.4511 70
33.4601 62
33.4691 64
33.4781 67
33.4871 81
33.4961 90
33.5051 88
33.5141 83
33.5231 126
33.5321 148
33.5411 190
33.5501 265
33.5591 334
33.5681 310
33.5771 243
33.5861 220
33.5951 154
33.6041 119
33.6131 96
33.6221 77
33.6311 71
33.6401 74
33.6491 64
33.6581 75
33.6671 71
33.6761 69
33.6851 62
33.6941 60
33.7031 51
33.7121 60
33.7211 64
33.7301 63
33.7391 91
33.7481 119
33.7571 149
33.7661 145
33.7751 158
33.7841 135
33.7931 152
33.8021 156
33.8111 171
33.8201 240
33.8291 246
33.8381 269
33.8471 239
33.8561 174
33.8651 119
33.8741 103
33.8831 120
33.8921 104
33.9011 117
33.9101 126
33.9191 115
33.9281 142
33.9371 134
33.9461 131
33.9551 139
33.9641 153
33.9731 128
33.9821 133
33.9911 139
34.0001 164
34.0091 222
34.0181 317
34.0271 482
34.0361 679
34.0451 900
34.0541 1073
34.0631 1204
34.0721 1414
34.0811 1904
34.0901 2540
34.0991 3205
34.1081 3573
34.1171 3589
34.1261 2902
34.1351 2123
34.1441 1441
34.1531 1077
34.1621 796
34.1711 593
34.1801 489
34.1891 431
34.1981 460
34.2071 496
34.2161 531
34.2251 655
34.2341 797
34.2431 1059
34.2521 1256
34.2611 1359
34.2701 1645
34.2791 1906
34.2881 2099
34.2971 2527
34.3061 3362
34.3151 4956
34.3241 7575
34.3331 11903
34.3421 19035
34.3511 30285
34.3601 44835
34.3691 57122
34.3781 62494
34.3871 58775
34.3961 49612
34.4051 38926
34.4141 29988
34.4231 25820
34.4321 24398
34.4411 24921
34.4501 25947
34.4591 29636
34.4681 35439
34.4771 39952
34.4861 44828
34.4951 54688
34.5041 71461
34.5131 103510
34.5221 187199
34.5311 480129
34.5401 2959250
34.5491 14757675
34.5581 3655454
34.5671 516179
34.5761 194634
34.5851 119948
34.5941 88521
34.6031 69406
34.6121 65369
34.6211 77924
34.6301 101670
34.6391 123552
34.6481 131823
34.6571 120079
34.6661 92224
34.6751 61620
34.6841 38350
34.6931 23605
34.7021 15607
34.7111 10079
34.7201 7147
34.7291 5006
34.7381 3821
34.7471 3171
34.7561 2592
34.7651 2097
34.7741 1769
34.7831 1674
34.7921 1349
34.8011 1066
34.8101 841
34.8191 808
34.8281 717
34.8371 678
34.8461 634
34.8551 651
34.8641 738
34.8731 843
34.8821 1101
34.8911 1382
34.9001 1704
34.9091 2005
34.9181 2121
34.9271 1909
34.9361 1719
34.9451 1517
34.9541 1206
34.9631 916
34.9721 750
34.9811 538
34.9901 385
34.9991 336
35.0081 255
35.0171 221
35.0261 183
35.0351 168
35.0441 166
35.0531 145
35.0621 142
35.0711 132
35.0801 130
35.0891 166
35.0981 161
35.1071 231
35.1161 282
35.1251 346
35.1341 408
35.1431 463
35.1521 461
35.1611 587
35.1701 657
35.1791 781
35.1881 901
35.1971 1001
35.2061 1027
35.2151 909
35.2241 630
35.2331 496
35.2421 381
35.2511 342
35.2601 214
35.2691 159
35.2781 127
35.2871 133
35.2961 132
35.3051 128
35.3141 141
35.3231 139
35.3321 169
35.3411 203
35.3501 210
35.3591 268
35.3681 338
35.3771 386
35.3861 460
35.3951 498
35.4041 578
35.4131 714
35.4221 868
35.4311 1096
35.4401 1560
35.4491 2281
35.4581 3052
35.4671 3466
35.4761 3246
35.4851 2728
35.4941 2069
35.5031 1464
35.5121 1072
35.5211 866
35.5301 708
35.5391 604
35.5481 433
35.5571 372
35.5661 375
35.5751 328
35.5841 302
35.5931 291
35.6021 260
35.6111 243
35.6201 264
35.6291 282
35.6381 334
35.6471 406
35.6561 498
35.6651 668
35.6741 804
35.6831 998
35.6921 1238
35.7011 1287
35.7101 1730
35.7191 2343
35.7281 3202
35.7371 4044
35.7461 4252
35.7551 3844
35.7641 3147
35.7731 2195
35.7821 1669
35.7911 1197
35.8001 927
35.8091 765
35.8181 579
35.8271 496
35.8361 458
35.8451 372
35.8541 385
35.8631 340
35.8721 352
35.8811 377
35.8901 338
35.8991 379
35.9081 373
35.9171 395
35.9261 490
35.9351 512
35.9441 651
35.9531 758
35.9621 904
35.9711 1105
35.9801 1350
35.9891 1809
35.9981 2439
36.0071 2996
36.0161 3382
36.0251 3147
36.0341 2733
36.0431 2056
36.0521 1517
36.0611 1159
36.0701 988
36.0791 730
36.0881 637
36.0971 463
36.1061 400
36.1151 404
36.1241 311
36.1331 269
36.1421 264
36.1511 254
36.1601 225
36.1691 268
36.1781 267
36.1871 314
36.1961 318
36.2051 366
36.2141 444
36.2231 534
36.2321 569
36.2411 716
36.2501 739
36.2591 858
36.2681 1216
36.2771 1666
36.2861 2076
36.2951 2024
36.3041 1767
36.3131 1307
36.3221 1021
36.3311 814
36.3401 594
36.3491 508
36.3581 406
36.3671 347
36.3761 262
36.3851 249
36.3941 210
36.4031 203
36.4121 178
36.4211 186
36.4301 183
36.4391 171
36.4481 179
36.4571 148
36.4661 198
36.4751 174
36.4841 203
36.4931 235
36.5021 305
36.5111 359
36.5201 421
36.5291 427
36.5381 555
36.5471 678
36.5561 852
36.5651 929
36.5741 828
36.5831 755
36.5921 572
36.6011 479
36.6101 369
36.6191 265
36.6281 220
36.6371 200
36.6461 151
36.6551 125
36.6641 115
36.6731 97
36.6821 90
36.6911 101
36.7001 102
36.7091 79
36.7181 96
36.7271 88
36.7361 108
36.7451 99
36.7541 72
36.7631 104
36.7721 115
36.7811 105
36.7901 130
36.7991 162
36.8081 194
36.8171 213
36.8261 311
36.8351 355
36.8441 330
36.8531 311
36.8621 236
36.8711 189
36.8801 144
36.8891 128
36.8981 114
36.9071 91
36.9161 80
36.9251 64
36.9341 51
36.9431 56
36.9521 47
36.9611 47
36.9701 37
36.9791 50
36.9881 36
36.9971 37
37.0061 43
37.0151 39
37.0241 51
37.0331 55
37.0421 50
37.0511 53
37.0601 57
37.0691 51
37.0781 66
37.0871 77
37.0961 96
37.1051 98
37.1141 134
37.1231 116
37.1321 88
37.1411 72
37.1501 60
37.1591 55
37.1681 48
37.1771 37
37.1861 37
37.1951 37
37.2041 30
37.2131 22
37.2221 29
37.2311 23
37.2401 22
37.2491 32
37.2581 21
37.2671 27
37.2761 16
37.2851 25
37.2941 18
37.3031 28
37.3121 23
37.3211 26
37.3301 22
37.3391 31
37.3481 33
37.3571 31
37.3661 23
37.3751 33
37.3841 37
37.3931 40
37.4021 34
37.4111 43
37.4201 22
37.4291 23
37.4381 29
37.4471 23
37.4561 24
37.4651 21
37.4741 17
37.4831 15
37.4921 19
37.5011 17
37.5101 21
37.5191 12
37.5281 16
37.5371 24
37.5461 23
37.5551 20
37.5641 23
37.5731 20
37.5821 19
37.5911 13
37.6001 22
37.6091 14
37.6181 10
37.6271 16
37.6361 20
37.6451 21
37.6541 19
37.6631 20
37.6721 14
37.6811 16
37.6901 14
37.6991 22
37.7081 17
37.7171 15
37.7261 21
37.7351 25
37.7441 21
37.7531 23
37.7621 14
37.7711 17
37.7801 19
37.7891 23
37.7981 14
37.8071 14
37.8161 17
37.8251 15
37.8341 18
37.8431 15
37.8521 19
37.8611 21
37.8701 21
37.8791 14
37.8881 15
37.8971 26
37.9061  9
37.9151 19
37.9241 23
37.9331 20
37.9421 12
37.9511 14
37.9601 12
37.9691 18
37.9781 16
37.9871 14
37.9961 18
38.0051 23
38.0141  9
38.0231 15
38.0321 13
38.0411 19
38.0501 17
38.0591 19
38.0681 16
38.0771 20
38.0861 18
38.0951 15
38.1041 17
38.1131 22
38.1221 14
38.1311 14
38.1401 12
38.1491 25
38.1581 16
38.1671 13
38.1761 15
38.1851 13
38.1941 15
38.2031 16
38.2121 14
38.2211 11
38.2301 15
38.2391 16
38.2481 12
38.2571 30
38.2661 16
38.2751 20
38.2841 12
38.2931 17
38.3021 15
38.3111 17
38.3201 14
38.3291 19
38.3381 17
38.3471 18
38.3561 14
38.3651 14
38.3741 16
38.3831 23
38.3921 19
38.4011 16
38.4101 13
38.4191 21
38.4281 24
38.4371 14
38.4461 20
38.4551 22
38.4641 24
38.4731 14
38.4821 23
38.4911 17
38.5001 20
38.5091 21
38.5181 11
38.5271 20
38.5361 15
38.5451 17
38.5541 12
